id;time;xs;ys;zs;ac;kurt
1;59777703508635;-9.69;-0.09;0.09;1.56;0.00
2;59777943712492;-9.74;-0.48;-0.33;1.60;0.00
3;59777963732023;-9.68;-0.34;-0.33;1.60;0.00
4;59777983751555;-9.65;-0.28;-0.16;1.59;0.00
5;59778023821135;-9.71;-0.32;-0.34;1.61;0.00
6;59778043840666;-9.69;-0.35;-0.24;1.60;0.00
7;59778063860197;-9.68;-0.32;-0.28;1.60;0.00
8;59778083879728;-9.68;-0.10;-0.33;1.60;0.00
9;59778123949308;-9.70;-0.26;-0.22;1.59;0.00
10;59778143938322;-9.66;-0.23;-0.31;1.60;0.00
11;59778183977385;-9.69;-0.21;-0.16;1.59;0.00
12;59778203996916;-9.70;-0.19;-0.28;1.60;0.00
13;59778224046965;-9.62;-0.29;-0.27;1.60;0.00
14;59778284136076;-9.72;-0.19;-0.25;1.60;0.00
15;59778324205656;-9.65;-0.34;-0.31;1.60;0.00
16;59778344194670;-9.70;-0.26;-0.23;1.59;0.00
17;59778364244719;-9.68;-0.20;-0.22;1.59;0.00
18;59778384264250;-9.70;-0.26;-0.17;1.59;0.00
19;59778404283781;-9.68;-0.18;-0.27;1.60;0.00
20;59778424333830;-9.66;-0.26;-0.19;1.59;0.00
21;59778444353361;-9.69;-0.23;-0.25;1.60;0.00
22;59778464372892;-9.67;-0.20;-0.24;1.60;0.00
23;59778484392424;-9.69;-0.23;-0.26;1.60;0.00
24;59778504411955;-9.68;-0.29;-0.25;1.60;0.00
25;59778524462004;-9.68;-0.33;-0.19;1.59;0.00
26;59778544481535;-9.65;-0.30;-0.03;1.57;0.00
27;59778564501066;-9.68;0.02;-0.07;1.58;0.00
28;59778584551115;-9.65;-0.18;-0.20;1.59;0.00
29;59778604601164;-9.62;0.06;-0.12;1.58;0.00
30;59778624620695;-9.69;-0.18;-0.20;1.59;0.00
31;59778644640226;-9.70;-0.40;-0.33;1.60;0.00
32;59778664720793;-9.69;-0.68;0.07;1.56;0.00
33;59778684740324;-9.74;-0.44;-0.20;1.59;0.00
34;59778704790373;-9.66;-0.41;-0.38;1.61;0.00
35;59778724779387;-9.66;-1.42;-0.67;1.64;0.00
36;59778744829435;-9.71;-1.29;-0.62;1.63;0.00
37;59778764848967;-9.71;-0.83;0.12;1.56;0.00
38;59778804888029;-9.72;-1.24;-0.44;1.62;0.00
39;59778824907560;-9.74;-0.28;-0.08;1.58;0.00
40;59778844927092;-9.64;0.54;0.00;1.57;0.00
41;59778864977140;-9.76;-0.95;-0.08;1.58;0.00
42;59778884996672;-9.69;0.10;-0.07;1.58;0.00
43;59778905077238;-9.66;0.74;-0.14;1.59;0.00
44;59778925096769;-9.71;0.37;0.16;1.55;0.00
45;59778945116301;-9.74;-2.31;0.30;1.54;0.00
46;59778965135832;-10.16;-2.38;-0.32;1.60;0.00
47;59778985155363;-9.91;-1.51;-0.06;1.58;0.00
48;59779005144377;-9.72;1.43;0.65;1.50;0.00
49;59779025194426;-9.47;-1.95;1.11;1.46;0.00
50;59779045183439;-9.63;-1.67;-0.69;1.64;0.00
51;59779085253019;-9.77;1.72;-3.44;1.90;0.00
52;59779105272551;-9.83;1.36;-2.43;1.81;0.00
53;59779125292082;-9.71;4.82;-1.28;1.69;0.00
54;59779145311613;-10.72;-4.13;-1.09;1.67;0.00
55;59779165361662;-9.55;-1.06;0.86;1.48;0.00
56;59779185381193;-10.37;-0.10;-0.04;1.57;0.00
57;59779205431242;-10.06;1.19;2.11;1.37;0.00
58;59779225481291;-9.59;-0.07;-0.86;1.66;0.00
59;59779245500822;-9.73;-0.68;0.05;1.57;0.00
60;59779265581389;-9.72;-0.80;-0.41;1.61;0.00
61;59779285600920;-9.58;0.13;0.34;1.54;0.00
62;59779305620451;-9.67;0.30;-0.42;1.61;0.00
63;59779325670500;-9.72;-0.22;0.06;1.56;0.00
64;59779345720549;-9.70;-0.33;-0.13;1.58;0.00
65;59779365740080;-9.70;-0.56;-0.12;1.58;0.00
66;59779385759611;-9.69;0.51;-0.14;1.59;0.00
67;59779405809660;-9.67;-0.21;-0.10;1.58;0.00
68;59779425798674;-9.75;-0.20;-0.05;1.58;0.00
69;59779445848723;-9.66;-0.51;-0.16;1.59;0.00
70;59779465868254;-9.73;0.18;-0.08;1.58;0.00
71;59779485887785;-9.69;-0.12;-0.15;1.59;0.00
72;59779505907316;-9.68;-0.25;-0.01;1.57;0.00
73;59779545976896;-9.68;0.05;-0.05;1.58;0.00
74;59779586046476;-9.74;-0.33;-0.01;1.57;0.00
75;59779606096525;-9.70;-0.32;-0.18;1.59;0.00
76;59779646135588;-9.66;-0.00;-0.13;1.58;0.00
77;59779666185637;-9.71;0.13;0.10;1.56;0.00
78;59779706224699;-9.68;0.02;-0.36;1.61;0.00
79;59779726274748;-9.75;-0.53;-0.55;1.63;0.00
80;59779746324797;-9.72;-0.56;-0.57;1.63;0.00
81;59779766344328;-9.73;0.29;-0.05;1.58;0.00
82;59779786363859;-9.67;0.22;0.27;1.54;0.00
83;59779806444426;-9.68;-0.21;0.66;1.50;0.00
84;59779826494474;-9.66;-0.39;0.78;1.49;0.00
85;59779846514006;-9.74;0.04;0.62;1.51;0.00
86;59779866533537;-9.73;0.08;0.06;1.56;0.00
87;59779886583586;-9.72;-0.19;-0.28;1.60;0.00
88;59779906572599;-9.72;-0.31;-0.61;1.63;0.00
89;59779926622648;-9.72;-0.26;-0.21;1.59;0.00
90;59779946611662;-9.69;0.01;0.05;1.57;0.00
91;59779966600676;-9.65;-0.10;0.63;1.51;0.00
92;59779986650724;-9.65;-0.22;0.64;1.50;0.00
93;59780006700773;-9.65;-0.08;0.54;1.51;0.00
94;59780046770353;-9.70;-0.11;0.33;1.54;0.00
95;59780066789885;-9.67;0.01;0.19;1.55;0.00
96;59780086809416;-9.65;-0.35;0.07;1.56;0.00
97;59780106859465;-9.68;-0.24;-0.02;1.57;0.00
98;59780146898527;-9.77;-0.97;-0.82;1.65;0.00
99;59780166948576;-9.86;-0.11;-1.01;1.67;0.00
100;59780186968107;-9.69;0.29;1.06;1.46;0.00
101;59780206987639;-9.65;0.24;-0.46;1.62;0.00
102;59780227007170;-9.64;-0.46;-0.40;1.61;0.00
103;59780247057219;-9.70;-0.87;-0.16;1.59;0.00
104;59780267076750;-9.72;0.35;-0.53;1.63;0.00
105;59780287157316;-9.68;0.08;0.27;1.54;0.00
106;59780307176848;-9.74;-0.14;-0.02;1.57;0.00
107;59780327196379;-9.67;-0.53;-0.29;1.60;0.00
108;59780347276945;-9.68;-0.20;-0.41;1.61;0.00
109;59780367296476;-9.72;-0.03;-0.37;1.61;0.00
110;59780387316008;-9.66;-0.10;0.12;1.56;0.00
111;59780407335539;-9.73;-0.32;-0.48;1.62;0.00
112;59780427355070;-9.68;-0.20;-0.12;1.58;0.00
113;59780447344084;-9.71;-0.17;0.04;1.57;0.00
114;59780467424650;-9.69;0.01;-0.41;1.61;0.00
115;59780487444181;-9.68;-0.28;-0.32;1.60;0.00
116;59780507463713;-9.67;-0.23;-0.42;1.61;0.00
117;59780527483244;-9.67;-0.17;-0.32;1.60;0.00
118;59780547502775;-9.69;-0.17;-0.04;1.57;0.00
119;59780567522306;-9.67;-0.03;-0.22;1.59;0.00
120;59780607561369;-9.71;-0.26;-0.23;1.59;0.00
121;59780627611418;-9.66;-0.15;-0.29;1.60;0.00
122;59780647630949;-9.69;-0.16;-0.21;1.59;0.00
123;59780687670012;-9.62;-0.16;0.06;1.56;0.00
124;59780707659025;-9.72;-0.03;0.04;1.57;0.00
125;59780747698088;-9.69;-0.37;-0.11;1.58;0.00
126;59780767717619;-9.68;-0.24;-0.01;1.57;0.00
127;59780787676115;-9.71;0.09;-0.23;1.59;0.00
128;59780807695646;-9.73;-0.26;-0.33;1.60;0.00
129;59780827715178;-9.69;-0.46;-0.29;1.60;0.00
130;59780847734709;-9.68;-0.20;-0.39;1.61;0.00
131;59780867784758;-9.72;0.16;-0.48;1.62;0.00
132;59780907854338;-9.67;-0.46;-0.11;1.58;0.00
133;59780927904387;-9.73;-0.17;-0.32;1.60;0.00
134;59780967943449;-9.70;-0.17;-0.29;1.60;0.00
135;59780987993498;-9.70;-0.36;-0.32;1.60;0.00
136;59781008013029;-9.70;-0.16;-0.40;1.61;0.00
137;59781028063078;-9.69;-0.40;-0.93;1.67;0.00
138;59781048082609;-9.73;-0.41;-0.92;1.66;0.00
139;59781068102140;-9.70;-0.08;-0.60;1.63;0.00
140;59781088121672;-9.70;-0.00;-0.46;1.62;0.00
141;59781108110685;-9.67;-0.22;-0.36;1.61;0.00
142;59781128160734;-9.73;-0.37;-0.17;1.59;0.00
143;59781148180265;-9.54;-0.09;0.68;1.50;0.00
144;59781168169279;-9.68;-0.46;1.01;1.47;0.00
145;59781188219328;-9.76;-0.27;0.38;1.53;0.00
146;59781208238859;-9.66;1.32;0.93;1.48;0.00
147;59781228258390;-9.71;-0.68;0.64;1.51;0.00
148;59781248277922;-9.65;0.08;0.29;1.54;0.00
149;59781268297453;-9.70;-0.42;-0.15;1.59;0.00
150;59781288316984;-9.68;0.01;0.13;1.56;0.00
151;59781308336515;-9.70;-0.18;-0.02;1.57;0.00
152;59781328386564;-9.71;-0.16;0.20;1.55;0.00
153;59781348406096;-9.65;-0.11;0.02;1.57;0.00
154;59781368395109;-9.67;-0.04;-0.15;1.59;0.00
155;59781388445158;-9.73;-0.25;0.10;1.56;0.00
156;59781408464689;-9.69;-0.12;0.21;1.55;0.00
157;59781428514738;-9.69;-0.08;0.01;1.57;0.00
158;59781448534269;-9.68;-0.14;0.17;1.55;0.00
159;59781468584318;-9.67;-0.28;0.30;1.54;0.00
160;59781488603849;-9.73;-0.06;0.18;1.55;0.00
161;59781508623381;-9.70;0.01;-0.01;1.57;0.00
162;59781528673430;-9.64;-0.04;-0.05;1.58;0.00
163;59781568743010;-9.70;-0.32;0.36;1.53;0.00
164;59781588762541;-9.69;-0.00;0.21;1.55;0.00
165;59781608751555;-9.70;0.01;0.25;1.55;0.00
166;59781628801603;-9.67;-0.22;0.21;1.55;0.00
167;59781648821135;-9.71;-0.19;0.25;1.55;0.00
168;59781688860197;-9.67;-0.05;0.69;1.50;0.00
169;59781708879728;-9.66;0.21;0.43;1.53;0.00
170;59781728929777;-9.75;-0.06;0.10;1.56;0.00
171;59781768968840;-9.64;-0.02;0.50;1.52;0.00
172;59781789049406;-9.69;0.15;0.18;1.55;0.00
173;59781809068937;-9.70;-0.25;0.34;1.54;0.00
174;59781829088469;-9.65;-0.18;-0.03;1.57;0.00
175;59781849108000;-10.27;-0.03;-1.92;1.76;0.00
176;59781869127531;-9.66;-0.04;-0.39;1.61;0.00
177;59781889147062;-9.65;-1.07;-1.17;1.69;0.00
178;59781909166594;-9.77;-0.32;-1.07;1.68;0.00
179;59781929186125;-9.75;0.51;-0.04;1.57;0.00
180;59781949175139;-9.73;-0.01;-0.06;1.58;0.00
181;59781969255705;-9.70;-0.32;-0.38;1.61;0.00
182;59781989275236;-9.75;-0.43;0.09;1.56;0.00
183;59782009294767;-9.67;0.26;0.33;1.54;0.00
184;59782029314299;-9.74;0.09;-0.31;1.60;0.00
185;59782049364348;-9.68;-0.34;-0.18;1.59;0.00
186;59782069322844;-9.76;-0.55;-0.38;1.61;0.00
187;59782089342375;-9.74;0.15;-0.36;1.61;0.00
188;59782109392424;-9.69;0.04;-0.30;1.60;0.00
189;59782129411955;-9.62;-0.29;0.16;1.55;0.00
190;59782149431486;-9.66;-0.30;-0.05;1.58;0.00
191;59782169451017;-9.73;-0.06;-0.33;1.60;0.00
192;59782189440031;-9.58;-0.32;-0.31;1.60;0.00
193;59782209520598;-9.72;-0.07;-0.05;1.58;0.00
194;59782249590178;-9.70;-0.01;-0.30;1.60;0.00
195;59782269609709;-9.70;-0.24;-0.50;1.62;0.00
196;59782289629240;-9.69;-0.27;-0.26;1.60;0.00
197;59782309618254;-9.72;-0.30;-0.22;1.59;0.00
198;59782329668303;-9.67;0.04;-0.53;1.63;0.00
199;59782349718351;-9.72;0.02;-0.31;1.60;0.00
200;59782369707365;-9.71;-0.18;-0.04;1.57;0.00
201;59782389726896;-9.66;-0.39;0.03;1.57;0.00
202;59782409746428;-9.72;0.03;-0.27;1.60;0.00
203;59782429826994;-9.71;0.10;-0.83;1.66;0.00
204;59782449846525;-9.65;-0.60;0.15;1.56;0.00
205;59782469866056;-9.69;-0.08;-0.20;1.59;0.00
206;59782489885588;-9.66;-0.00;-0.38;1.61;0.00
207;59782509905119;-9.65;-0.22;-0.09;1.58;0.00
208;59782529924650;-9.66;-0.04;-0.44;1.62;0.00
209;59782549913664;-9.72;0.01;-0.45;1.62;0.00
210;59782569902678;-9.68;-0.41;-0.35;1.61;0.00
211;59782609972258;-9.70;0.02;-0.11;1.58;0.00
212;59782630022306;-9.67;0.10;-0.41;1.61;0.00
213;59782650041838;-9.66;-0.08;-0.17;1.59;0.00
214;59782670091887;-9.67;-0.26;-0.10;1.58;0.00
215;59782690111418;-9.71;0.00;-0.71;1.64;0.00
216;59782730211515;-9.72;-0.22;-0.02;1.57;0.00
217;59782750261564;-9.66;0.08;-0.31;1.60;0.00
218;59782770311613;-9.68;-0.33;0.12;1.56;0.00
219;59782790331144;-9.69;0.04;-0.34;1.61;0.00
220;59782810411711;-9.75;0.24;-0.82;1.65;0.00
221;59782830461760;-9.70;-0.46;-0.31;1.60;0.00
222;59782850481291;-9.77;-0.31;-0.11;1.58;0.00
223;59782870531340;-9.70;0.24;-0.32;1.60;0.00
224;59782890550871;-9.68;-0.14;0.18;1.55;0.00
225;59782910570402;-9.71;-0.51;0.08;1.56;0.00
226;59782950578947;-9.62;0.14;0.20;1.55;0.00
227;59782970628996;-9.86;-0.56;-0.88;1.66;0.00
228;59783010698576;-9.49;0.57;-0.53;1.63;0.00
229;59783030718107;-9.75;-1.40;-0.35;1.61;0.00
230;59783050798674;-9.79;0.91;2.32;1.34;0.00
231;59783070818205;-9.55;0.24;-1.38;1.71;0.00
232;59783090837736;-9.60;0.56;-0.86;1.66;0.00
233;59783110826750;-9.73;-1.53;-0.58;1.63;0.00
234;59783130846281;-9.74;0.32;-0.19;1.59;0.00
235;59783150896330;-9.66;0.13;-0.79;1.65;0.00
236;59783170946379;-9.76;0.02;-0.39;1.61;0.00
237;59783190965910;-9.77;-0.11;-0.34;1.61;0.00
238;59783210985441;-9.72;-0.88;0.02;1.57;0.00
239;59783231004973;-9.71;-0.01;-0.99;1.67;0.00
240;59783250993986;-9.74;-0.27;-1.00;1.67;0.00
241;59783270983000;-9.75;-0.60;-0.75;1.65;0.00
242;59783291002531;-9.65;-0.49;-0.63;1.64;0.00
243;59783311022062;-9.70;0.08;-0.71;1.64;0.00
244;59783331041594;-9.69;-0.10;-0.34;1.61;0.00
245;59783351091642;-9.73;-0.36;1.98;1.37;0.00
246;59783371111174;-9.74;-0.19;-0.26;1.60;0.00
247;59783391130705;-9.53;0.80;1.99;1.37;0.00
248;59783411150236;-9.62;-0.00;0.43;1.53;0.00
249;59783431169767;-9.68;-0.10;0.46;1.52;0.00
250;59783451189299;-9.75;-0.40;-0.26;1.60;0.00
251;59783491228361;-9.70;-0.15;-0.14;1.59;0.00
252;59783511247892;-9.71;0.19;0.16;1.55;0.00
253;59783531297941;-9.61;-0.11;0.02;1.57;0.00
254;59783551317473;-9.64;-0.40;0.15;1.56;0.00
255;59783571337004;-9.67;0.13;0.52;1.52;0.00
256;59783591326017;-9.65;0.05;-0.19;1.59;0.00
257;59783611376066;-9.73;-0.69;-0.79;1.65;0.00
258;59783631395598;-9.72;-0.26;-0.54;1.63;0.00
259;59783651415129;-9.70;0.57;-0.17;1.59;0.00
260;59783671373625;-9.69;-0.38;-0.12;1.58;0.00
261;59783691423674;-9.74;-0.51;-0.16;1.59;0.00
262;59783711443205;-9.70;-0.16;-0.03;1.57;0.00
263;59783731432219;-9.62;0.40;0.48;1.52;0.00
264;59783751451750;-9.64;-0.18;0.33;1.54;0.00
265;59783771471281;-9.71;-0.23;-0.09;1.58;0.00
266;59783791490812;-9.72;-0.28;-0.30;1.60;0.00
267;59783811510344;-9.69;0.01;-0.27;1.60;0.00
268;59783831529875;-9.64;-0.17;-0.10;1.58;0.00
269;59783851579924;-9.72;-0.14;0.25;1.55;0.00
270;59783871599455;-9.72;-0.11;0.04;1.57;0.00
271;59783891618986;-9.66;-0.06;-0.06;1.58;0.00
272;59783911577482;-9.71;-0.23;-0.18;1.59;0.00
273;59783931597014;-9.70;-0.23;-0.01;1.57;0.00
274;59783951616545;-9.66;-0.02;0.08;1.56;0.00
275;59783971636076;-9.67;0.02;0.05;1.57;0.00
276;59783991655607;-9.70;-0.26;-0.06;1.58;0.00
277;59784011675139;-9.79;-0.23;-0.14;1.59;0.00
278;59784031725187;-9.65;-0.11;-0.04;1.57;0.00
279;59784051744719;-9.69;-0.08;0.05;1.57;0.00
280;59784071733732;-9.66;-0.17;0.06;1.56;0.00
281;59784091783781;-9.69;-0.20;-0.06;1.58;0.00
282;59784111803312;-9.61;0.24;0.38;1.53;0.00
283;59784131853361;-9.65;-0.40;0.01;1.57;0.00
284;59784151872892;-9.73;-0.79;-0.62;1.63;0.00
285;59784191942473;-9.67;0.23;-0.10;1.58;0.00
286;59784211931486;-9.71;0.31;0.15;1.56;0.00
287;59784231981535;-9.68;-0.12;0.27;1.54;0.00
288;59784252001066;-9.72;-0.39;-0.31;1.60;0.00
289;59784272020598;-9.67;-0.43;-0.21;1.59;0.00
290;59784292040129;-9.69;0.02;-0.14;1.59;0.00
291;59784312090178;-9.65;-0.08;0.35;1.53;0.00
292;59784332140226;-9.71;-0.02;0.15;1.56;0.00
293;59784352129240;-9.68;0.05;-0.52;1.62;0.00
294;59784372209806;-9.69;0.32;-0.06;1.58;0.00
295;59784392229338;-9.65;-0.92;0.41;1.53;0.00
296;59784412248869;-9.72;-0.19;0.05;1.57;0.00
297;59784432268400;-9.76;0.22;0.15;1.56;0.00
298;59784452287931;-9.75;0.74;-0.68;1.64;0.00
299;59784472307463;-9.67;0.27;0.77;1.49;0.00
300;59784492326994;-9.68;-1.47;-0.27;1.60;0.00
301;59784512377043;-9.71;-0.23;-0.01;1.57;0.00
302;59784532427092;-9.67;0.22;-0.02;1.57;0.00
303;59784572527189;-9.71;-0.32;0.07;1.56;0.00
304;59784592546721;-9.74;0.18;-0.29;1.60;0.00
305;59784612596769;-9.73;-0.09;0.07;1.56;0.00
306;59784632646818;-9.69;-0.08;0.09;1.56;0.00
307;59784652666349;-9.68;-0.15;-0.01;1.57;0.00
308;59784672655363;-9.67;0.03;-0.08;1.58;0.00
309;59784692705412;-9.71;-0.39;0.03;1.57;0.00
310;59784712724943;-9.63;-0.02;0.06;1.56;0.00
311;59784732774992;-9.71;-0.10;-0.02;1.57;0.00
312;59784752794523;-9.69;0.30;-0.24;1.60;0.00
313;59784772814055;-9.71;-0.65;0.41;1.53;0.00
314;59784792864103;-9.73;-0.28;-0.20;1.59;0.00
315;59784812883635;-9.68;-0.02;0.06;1.56;0.00
316;59784832903166;-9.73;-0.38;-0.14;1.59;0.00
317;59784852922697;-9.64;0.34;-0.02;1.57;0.00
318;59784872942228;-9.67;-0.15;-0.30;1.60;0.00
319;59784892931242;-9.79;-0.09;-0.46;1.62;0.00
320;59784912981291;-9.68;-0.89;0.59;1.51;0.00
321;59784953050871;-9.65;0.04;0.05;1.57;0.00
322;59784973070402;-9.69;-0.61;-0.03;1.57;0.00
323;59784993028898;-9.66;0.08;0.17;1.55;0.00
324;59785013017912;-9.66;0.15;-0.01;1.57;0.00
325;59785033098478;-9.67;-0.21;-0.44;1.62;0.00
326;59785053118010;-9.69;-0.55;0.02;1.57;0.00
327;59785073137541;-9.73;-0.14;-0.13;1.58;0.00
328;59785093187590;-9.68;0.07;-0.08;1.58;0.00
329;59785113207121;-9.70;-0.13;0.18;1.55;0.00
330;59785133196135;-9.70;0.10;-0.17;1.59;0.00
331;59785153246183;-9.68;-0.16;0.04;1.57;0.00
332;59785173265715;-9.76;-0.33;-0.11;1.58;0.00
333;59785193315764;-9.70;-0.21;0.04;1.57;0.00
334;59785213304777;-9.74;-0.13;-0.05;1.58;0.00
335;59785233354826;-9.70;-0.09;-0.23;1.59;0.00
336;59785253404875;-9.69;-0.26;0.03;1.57;0.00
337;59785273424406;-9.70;-0.16;0.01;1.57;0.00
338;59785293443937;-9.65;-0.01;0.02;1.57;0.00
339;59785313493986;-9.68;-0.20;0.06;1.56;0.00
340;59785333574553;-9.65;-0.18;-0.12;1.58;0.00
341;59785353624601;-9.66;-0.10;-0.04;1.57;0.00
342;59785373613615;-9.74;-0.18;-0.03;1.57;0.00
343;59785393633146;-9.71;-0.30;0.02;1.57;0.00
344;59785413683195;-9.69;-0.18;0.14;1.56;0.00
345;59785433702726;-9.68;0.31;-0.22;1.59;0.00
346;59785453722258;-9.72;-0.32;-0.16;1.59;0.00
347;59785473772306;-9.66;-0.16;0.13;1.56;0.00
348;59785493791838;-9.72;-0.09;0.09;1.56;0.00
349;59785513811369;-9.74;-0.21;-0.21;1.59;0.00
350;59785533830900;-9.71;-0.20;-0.06;1.58;0.00
351;59785553819914;-9.69;-0.09;0.14;1.56;0.00
352;59785573869963;-9.73;0.04;-0.00;1.57;0.00
353;59785593889494;-9.72;-0.38;0.03;1.57;0.00
354;59785613909025;-9.73;-0.35;-0.20;1.59;0.00
355;59785633898039;-9.72;-0.09;-0.17;1.59;0.00
356;59785653948088;-9.66;0.11;0.12;1.56;0.00
357;59785673967619;-9.71;-0.17;-0.04;1.57;0.00
358;59785693987150;-9.69;-0.24;-0.02;1.57;0.00
359;59785714037199;-9.68;-0.32;-0.08;1.58;0.00
360;59785734056730;-9.70;-0.04;-0.06;1.58;0.00
361;59785754137297;-9.67;0.02;-0.14;1.59;0.00
362;59785774156828;-9.67;-0.36;0.11;1.56;0.00
363;59785794176359;-9.82;-0.48;0.09;1.56;0.00
364;59785814226408;-9.66;0.26;-0.10;1.58;0.00
365;59785834245939;-9.69;0.05;-0.47;1.62;0.00
366;59785854265471;-9.71;-0.48;-0.32;1.60;0.00
367;59785874346037;-9.69;-0.51;-0.01;1.57;0.00
368;59785894365568;-9.73;0.37;0.28;1.54;0.00
369;59785914385099;-9.72;-0.06;-0.04;1.57;0.00
370;59785934435148;-9.75;-0.34;-0.19;1.59;0.00
371;59785954454680;-9.70;-0.38;-0.25;1.60;0.00
372;59785974474211;-9.67;0.14;0.06;1.56;0.00
373;59786014513273;-9.70;-0.23;-0.03;1.57;0.00
374;59786034532805;-9.71;-0.35;-0.23;1.59;0.00
375;59786054552336;-9.67;0.02;-0.13;1.58;0.00
376;59786074602385;-9.67;-0.11;0.05;1.57;0.00
377;59786094621916;-9.68;-0.33;0.02;1.57;0.00
378;59786114671965;-9.72;-0.09;-0.11;1.58;0.00
379;59786134691496;-9.66;-0.09;-0.15;1.59;0.00
380;59786154711027;-9.71;-0.17;-0.08;1.58;0.00
381;59786174791594;-9.72;-0.20;-0.07;1.58;0.00
382;59786214830656;-9.69;-0.11;-0.11;1.58;0.00
383;59786234880705;-9.67;-0.12;-0.03;1.57;0.00
384;59786254869719;-9.69;-0.19;-0.06;1.58;0.00
385;59786294939299;-9.70;-0.18;-0.05;1.58;0.00
386;59786314928312;-9.64;-0.24;-0.01;1.57;0.00
387;59786335008879;-9.70;-0.06;0.01;1.57;0.00
388;59786355028410;-9.73;-0.15;-0.07;1.58;0.00
389;59786375047941;-9.67;-0.13;-0.00;1.57;0.00
390;59786415087004;-9.68;-0.14;-0.02;1.57;0.00
391;59786455095549;-9.65;-0.17;-0.10;1.58;0.00
392;59786475115080;-9.63;-0.15;-0.09;1.58;0.00
393;59786495104094;-9.72;-0.10;-0.07;1.58;0.00
394;59786515093107;-9.70;-0.19;-0.07;1.58;0.00
395;59786535143156;-9.68;-0.15;-0.07;1.58;0.00
396;59786555101652;-9.68;-0.16;-0.02;1.57;0.00
397;59786575121183;-9.68;-0.16;-0.04;1.57;0.00
398;59786595140715;-9.65;-0.23;-0.06;1.58;0.00
399;59786615160246;-9.68;-0.22;-0.06;1.58;0.00
400;59786635210295;-9.73;-0.10;-0.06;1.58;0.00
401;59786655260344;-9.75;-0.12;-0.10;1.58;0.00
402;59786675279875;-9.69;-0.16;-0.04;1.57;0.00
403;59786695299406;-9.68;-0.17;-0.13;1.58;0.00
404;59786715318937;-9.70;-0.11;-0.07;1.58;0.00
405;59786735368986;-9.70;-0.19;-0.06;1.58;0.00
406;59786755388517;-9.67;-0.14;-0.09;1.58;0.00
407;59786795427580;-9.73;-0.10;-0.09;1.58;0.00
408;59786815386076;-9.77;-0.08;-0.09;1.58;0.00
409;59786835466642;-9.71;-0.12;-0.02;1.57;0.00
410;59786855486174;-9.69;-0.11;-0.07;1.58;0.00
411;59786875505705;-9.68;-0.20;-0.05;1.58;0.00
412;59786895525236;-9.72;-0.16;-0.07;1.58;0.00
413;59786915544767;-9.72;-0.19;-0.10;1.58;0.00
414;59786935594816;-9.69;-0.26;-0.01;1.57;0.00
415;59786955614348;-9.67;-0.17;-0.04;1.57;0.00
416;59786975633879;-9.73;-0.19;-0.16;1.59;0.00
417;59786995653410;-9.70;-0.17;-0.01;1.57;0.00
418;59787015672941;-9.70;-0.13;-0.11;1.58;0.00
419;59787035692473;-9.67;-0.15;-0.00;1.57;0.00
420;59787055712004;-9.67;-0.15;-0.06;1.58;0.00
421;59787075731535;-9.75;-0.21;0.02;1.57;0.00
422;59787095781584;-9.73;-0.18;-0.04;1.57;0.00
423;59787115801115;-9.67;-0.17;-0.07;1.58;0.00
