id;time;xs;ys;zs;ac;kurt
1;66176803595646;-9.73;-0.36;-1.29;1.70;0.00
2;66177084021672;-9.65;-0.15;0.58;1.51;0.00
3;66177124121769;-10.24;-1.46;1.28;1.45;0.00
4;66177144141301;-9.09;2.93;-0.59;1.63;0.00
5;66177184241398;-10.31;-2.99;-0.23;1.59;0.00
6;66177224341496;-9.30;1.02;-0.72;1.65;0.00
7;66177284430607;-9.71;0.28;0.57;1.51;0.00
8;66177324530705;-8.82;-2.94;-0.12;1.58;0.00
9;66177364569767;-9.38;1.98;-0.40;1.61;0.00
10;66177404700383;-9.15;-4.18;-1.43;1.71;0.00
11;66177444739445;-9.86;-0.23;0.76;1.49;0.00
12;66177484809025;-9.30;-2.27;1.53;1.41;0.00
13;66177544898137;-9.61;1.01;0.44;1.53;0.00
14;66177604987248;-9.51;1.86;-1.37;1.71;0.00
15;66177645056828;-9.62;-0.12;-0.56;1.63;0.00
16;66177705115422;-9.50;1.14;0.88;1.48;0.00
17;66177745185002;-9.56;-0.68;0.38;1.53;0.00
18;66177785254582;-9.77;-1.29;0.02;1.57;0.00
19;66177805274113;-9.72;-0.48;-0.51;1.62;0.00
20;66177885352238;-9.77;-0.47;-0.30;1.60;0.00
21;66177945441349;-9.72;-0.51;-0.23;1.59;0.00
22;66178025458439;-9.63;-0.60;-0.17;1.59;0.00
23;66178065528019;-9.65;-0.45;-0.45;1.62;0.00
24;66178105597599;-9.72;0.36;-0.37;1.61;0.00
25;66178145636662;-9.72;-0.52;-0.27;1.60;0.00
26;66178165686711;-9.68;-0.56;-0.11;1.58;0.00
27;66178205725773;-9.63;0.16;0.23;1.55;0.00
28;66178265784367;-9.79;0.25;-2.38;1.81;0.00
29;66178285834416;-10.65;-1.05;-3.86;1.92;0.00
30;66178325873478;-9.71;-1.38;-0.78;1.65;0.00
31;66178365943058;-9.74;0.32;-0.48;1.62;0.00
32;66178426001652;-9.68;-1.13;2.32;1.34;0.00
33;66178446051701;-9.56;-1.34;0.42;1.53;0.00
34;66178466101750;-10.02;0.10;-0.87;1.66;0.00
35;66178486121281;-9.68;1.91;0.56;1.51;0.00
36;66178526190861;-9.71;-0.89;0.91;1.48;0.00
37;66178546210392;-9.72;-0.49;-0.43;1.61;0.00
38;66178566290959;-9.77;-0.36;-0.69;1.64;0.00
39;66178586310490;-9.69;0.46;-0.11;1.58;0.00
40;66178626380070;-9.72;-0.41;-0.45;1.62;0.00
41;66178646369084;-9.64;-0.42;-0.85;1.66;0.00
42;66178666419133;-9.76;-0.46;-0.29;1.60;0.00
43;66178686438664;-9.72;-0.26;0.43;1.53;0.00
44;66178726508244;-9.68;-0.34;0.10;1.56;0.00
45;66178746497258;-9.68;-0.18;-0.02;1.57;0.00
46;66178766547306;-9.70;0.01;0.17;1.55;0.00
47;66178806555851;-9.67;-0.45;0.48;1.52;0.00
48;66178826605900;-9.68;0.06;-0.17;1.59;0.00
49;66178846625431;-9.75;0.08;-0.61;1.63;0.00
50;66178866644963;-9.75;-0.36;-0.14;1.59;0.00
51;66178906684025;-9.73;-0.51;-0.36;1.61;0.00
52;66178926703556;-9.76;-0.42;0.08;1.56;0.00
53;66178946662053;-9.72;0.31;0.45;1.52;0.00
54;66178966712101;-9.63;-0.10;-0.56;1.63;0.00
55;66178986762150;-9.72;-0.10;0.11;1.56;0.00
56;66179006781681;-9.83;-0.61;0.22;1.55;0.00
57;66179026801213;-9.72;-0.81;-0.07;1.58;0.00
58;66179046790226;-9.61;0.74;0.36;1.53;0.00
59;66179066809758;-9.71;1.13;-0.14;1.59;0.00
60;66179086890324;-9.70;-0.49;0.24;1.55;0.00
61;66179106940373;-11.11;-2.70;-4.31;1.93;0.00
62;66179126959904;-9.72;-0.39;-0.63;1.64;0.00
63;66179146979435;-9.75;-0.38;-0.17;1.59;0.00
64;66179166998967;-9.74;0.34;0.31;1.54;0.00
65;66179187018498;-9.80;0.31;-0.95;1.67;0.00
66;66179207099064;-9.71;-0.14;-0.47;1.62;0.00
67;66179227118596;-9.73;0.03;-1.29;1.70;0.00
68;66179247168644;-9.69;-0.50;-0.56;1.63;0.00
69;66179267188176;-9.71;-0.56;-0.15;1.59;0.00
70;66179287207707;-9.71;-0.56;-0.13;1.58;0.00
71;66179307257756;-9.68;0.30;-0.17;1.59;0.00
72;66179327277287;-9.70;0.06;-0.45;1.62;0.00
73;66179347296818;-9.76;-0.20;-0.44;1.62;0.00
74;66179367316349;-9.67;-0.03;0.40;1.53;0.00
75;66179387366398;-9.75;-0.60;1.73;1.40;0.00
76;66179407385929;-9.70;-0.47;0.32;1.54;0.00
77;66179427435978;-9.69;0.19;-0.46;1.62;0.00
78;66179447455510;-9.64;0.12;0.41;1.53;0.00
79;66179467536076;-9.73;-0.28;0.18;1.55;0.00
80;66179487586125;-9.70;-0.45;0.04;1.57;0.00
81;66179507605656;-9.65;-0.25;-0.25;1.60;0.00
82;66179527686222;-9.66;0.13;-0.05;1.58;0.00
83;66179547705754;-9.71;-0.23;-0.08;1.58;0.00
84;66179567725285;-9.71;-0.41;-0.09;1.58;0.00
85;66179587775334;-9.67;-0.40;-0.11;1.58;0.00
86;66179607794865;-10.07;-0.03;0.85;1.49;0.00
87;66179627814396;-9.67;0.13;-0.17;1.59;0.00
88;66179647864445;-9.80;0.10;-0.54;1.63;0.00
89;66179667883976;-9.73;-0.40;-0.54;1.63;0.00
90;66179687934025;-9.67;-0.53;-0.23;1.59;0.00
91;66179728003605;-9.73;0.13;0.01;1.57;0.00
92;66179768042668;-9.76;-0.20;0.10;1.56;0.00
93;66179788031681;-9.75;-0.53;-0.06;1.58;0.00
94;66179808020695;-9.67;-0.42;0.51;1.52;0.00
95;66179848059758;-9.64;0.04;-0.22;1.59;0.00
96;66179868079289;-9.69;-0.29;-0.26;1.60;0.00
97;66179888129338;-9.68;-0.54;-0.11;1.58;0.00
98;66179908148869;-9.70;-0.21;0.14;1.56;0.00
99;66179928198918;-9.71;0.16;-0.06;1.58;0.00
100;66179948279484;-9.70;-0.05;-0.07;1.58;0.00
101;66179968299015;-9.68;-0.32;-0.09;1.58;0.00
102;66179988318547;-9.69;-0.47;-0.08;1.58;0.00
103;66180008307560;-9.72;-0.03;-0.05;1.58;0.00
104;66180028357609;-9.70;0.05;-0.07;1.58;0.00
105;66180048377140;-9.68;-0.22;0.03;1.57;0.00
106;66180068366154;-9.71;-0.37;-0.13;1.58;0.00
107;66180088446721;-9.70;-0.33;-0.13;1.58;0.00
108;66180108496769;-9.72;-0.03;-0.10;1.58;0.00
109;66180128546818;-9.65;-0.14;-0.02;1.57;0.00
110;66180148566349;-9.72;-0.27;-0.05;1.58;0.00
111;66180168616398;-9.70;-0.35;-0.14;1.59;0.00
112;66180188666447;-9.67;-0.15;-0.14;1.59;0.00
113;66180208685978;-9.68;-0.14;-0.08;1.58;0.00
114;66180228705510;-9.67;-0.19;-0.03;1.57;0.00
115;66180248755558;-9.67;-0.44;-0.04;1.57;0.00
116;66180268775090;-9.71;-0.44;0.14;1.56;0.00
117;66180288825138;-9.70;-0.29;0.65;1.50;0.00
118;66180328925236;-9.71;-0.45;-0.63;1.64;0.00
119;66180368994816;-9.70;1.13;-0.75;1.65;0.00
120;66180389014347;-9.69;-0.55;0.62;1.51;0.00
121;66180429053410;-9.71;-0.32;0.46;1.52;0.00
122;66180449072941;-9.73;0.20;-0.25;1.60;0.00
123;66180469122990;-10.02;0.16;-0.59;1.63;0.00
124;66180489173039;-9.70;0.19;-0.27;1.60;0.00
125;66180509192570;-9.56;-0.85;0.50;1.52;0.00
126;66180529242619;-9.67;-0.72;-0.38;1.61;0.00
127;66180549262150;-9.69;0.15;-0.62;1.63;0.00
128;66180569312199;-9.66;0.45;-0.81;1.65;0.00
129;66180589331730;-9.72;-0.95;-0.53;1.63;0.00
130;66180609320744;-9.71;0.12;-0.59;1.63;0.00
131;66180629340275;-9.64;-0.13;0.79;1.49;0.00
132;66180649390324;-9.65;0.10;0.32;1.54;0.00
133;66180669440373;-9.71;-0.21;0.20;1.55;0.00
134;66180689490422;-9.69;-0.43;-0.23;1.59;0.00
135;66180709509953;-9.63;-0.32;0.25;1.54;0.00
136;66180729529484;-9.68;-0.12;0.04;1.57;0.00
137;66180749549015;-9.70;-0.03;-0.13;1.58;0.00
138;66180769599064;-9.72;-0.06;-0.28;1.60;0.00
139;66180789618596;-9.70;-0.39;-0.27;1.60;0.00
140;66180809668644;-9.70;-0.31;-0.26;1.60;0.00
141;66180829688176;-9.64;0.10;-0.21;1.59;0.00
142;66180869727238;-9.73;-0.26;-0.14;1.59;0.00
143;66180889807804;-9.66;-0.19;-0.23;1.59;0.00
144;66180909857853;-9.75;0.04;-0.14;1.59;0.00
145;66180929877385;-9.65;-0.29;-0.14;1.59;0.00
146;66180949866398;-9.67;-0.51;-0.18;1.59;0.00
147;66180969855412;-9.71;-0.42;-0.37;1.61;0.00
148;66180989874943;-9.69;-0.42;-0.56;1.63;0.00
149;66181009924992;-9.71;0.04;-0.31;1.60;0.00
150;66181029975041;-9.71;0.33;-0.35;1.61;0.00
151;66181069983586;-9.62;-0.44;-0.19;1.59;0.00
152;66181090064152;-9.72;-0.56;-0.23;1.59;0.00
153;66181110083683;-9.68;-0.30;-0.18;1.59;0.00
154;66181130072697;-9.67;0.20;-0.17;1.59;0.00
155;66181170172795;-9.67;-0.34;-0.12;1.58;0.00
156;66181190192326;-9.72;-0.42;-0.20;1.59;0.00
157;66181210211857;-9.69;-0.17;-0.12;1.58;0.00
158;66181230231388;-9.73;0.13;-0.18;1.59;0.00
159;66181250281437;-9.71;-0.04;-0.15;1.59;0.00
160;66181270300969;-9.70;-0.36;-0.13;1.58;0.00
161;66181290320500;-9.70;-0.31;-0.17;1.59;0.00
162;66181310340031;-9.70;-0.05;-0.13;1.58;0.00
163;66181330390080;-9.70;-0.03;-0.14;1.59;0.00
164;66181350409611;-9.68;-0.10;-0.15;1.59;0.00
165;66181370429142;-9.66;-0.32;-0.16;1.59;0.00
166;66181390479191;-9.75;-0.26;-0.17;1.59;0.00
167;66181410498722;-9.71;0.05;-0.13;1.58;0.00
168;66181430487736;-9.67;-0.03;-0.26;1.60;0.00
169;66181450537785;-9.72;-0.59;-0.44;1.62;0.00
170;66181470557316;-9.70;-0.75;-1.18;1.69;0.00
171;66181490576847;-9.68;0.47;-0.68;1.64;0.00
172;66181510626896;-9.50;-0.21;1.52;1.41;0.00
173;66181530615910;-9.69;-0.04;0.13;1.56;0.00
174;66181550665959;-9.84;-0.18;0.45;1.53;0.00
175;66181570685490;-9.71;0.13;-0.39;1.61;0.00
176;66181590705021;-9.73;-0.64;0.81;1.49;0.00
177;66181610724553;-9.70;-0.21;-0.25;1.60;0.00
178;66181630744084;-9.71;-0.44;-0.40;1.61;0.00
179;66181650763615;-9.69;-0.25;0.33;1.54;0.00
180;66181670752629;-9.68;0.08;0.37;1.53;0.00
181;66181690833195;-9.66;-0.17;-0.00;1.57;0.00
182;66181710852726;-9.69;-0.29;-0.07;1.58;0.00
183;66181730872258;-9.66;-0.06;0.31;1.54;0.00
184;66181750922306;-9.69;-0.13;-0.17;1.59;0.00
185;66181770941838;-9.63;-0.43;0.16;1.55;0.00
186;66181790961369;-9.73;-0.08;-0.11;1.58;0.00
187;66181810950383;-9.73;0.01;-0.02;1.57;0.00
188;66181831000431;-9.68;-0.20;-0.21;1.59;0.00
189;66181851019963;-9.72;-0.38;-0.21;1.59;0.00
190;66181871039494;-9.67;-0.02;0.10;1.56;0.00
191;66181891059025;-9.76;-0.11;0.23;1.55;0.00
192;66181911078556;-9.73;-0.23;-0.09;1.58;0.00
193;66181951087101;-9.64;-0.02;0.27;1.54;0.00
194;66181971137150;-9.69;-0.03;-0.19;1.59;0.00
195;66181991156681;-9.71;-0.42;-0.03;1.57;0.00
196;66182011176213;-9.69;-0.52;-0.01;1.57;0.00
197;66182031195744;-9.72;0.08;-0.09;1.58;0.00
198;66182051215275;-9.71;0.02;-0.11;1.58;0.00
199;66182071234806;-9.67;-0.34;0.07;1.56;0.00
200;66182091254338;-9.75;-0.33;-0.21;1.59;0.00
201;66182111273869;-9.68;-0.37;-0.22;1.59;0.00
202;66182131293400;-9.63;0.12;0.18;1.55;0.00
203;66182151312931;-9.71;0.05;0.28;1.54;0.00
204;66182171332463;-9.61;-0.38;0.03;1.57;0.00
205;66182191351994;-9.73;0.05;-0.18;1.59;0.00
206;66182211371525;-9.73;0.07;1.20;1.45;0.00
207;66182231421574;-9.75;-0.07;-0.21;1.59;0.00
208;66182251441105;-9.73;-0.42;-0.31;1.60;0.00
209;66182271460637;-9.70;-0.44;-0.62;1.63;0.00
210;66182291510685;-9.74;-0.42;-0.51;1.62;0.00
211;66182311530217;-9.67;-0.27;-0.15;1.59;0.00
212;66182331519230;-9.67;0.18;-0.23;1.59;0.00
213;66182351599797;-9.70;0.19;0.11;1.56;0.00
214;66182371619328;-9.66;-0.30;0.32;1.54;0.00
215;66182391638859;-9.67;-0.55;0.12;1.56;0.00
216;66182411719426;-9.72;-0.10;-0.48;1.62;0.00
217;66182431738957;-9.68;-0.01;-0.40;1.61;0.00
218;66182451758488;-9.67;-0.05;-0.14;1.59;0.00
219;66182471808537;-9.72;-0.40;0.12;1.56;0.00
220;66182491889103;-9.75;-0.27;0.08;1.56;0.00
221;66182511908635;-9.66;-0.01;-0.31;1.60;0.00
222;66182531897648;-9.70;-0.16;-0.20;1.59;0.00
223;66182551947697;-9.69;-0.23;-0.18;1.59;0.00
224;66182571967228;-9.71;-0.34;0.02;1.57;0.00
225;66182611975773;-9.72;-0.01;-0.25;1.60;0.00
226;66182631995304;-9.71;-0.21;-0.11;1.58;0.00
227;66182652075871;-9.63;-0.32;-0.15;1.59;0.00
228;66182672095402;-9.66;-0.22;-0.09;1.58;0.00
229;66182692114933;-9.67;0.02;-0.11;1.58;0.00
230;66182712134465;-9.76;-0.06;-0.12;1.58;0.00
231;66182732153996;-9.71;-0.28;-0.03;1.57;0.00
232;66182752173527;-9.70;-0.23;-0.14;1.59;0.00
233;66182772254094;-9.70;-0.10;-0.10;1.58;0.00
234;66182792304142;-9.67;-0.04;-0.09;1.58;0.00
235;66182812323674;-9.69;-0.20;-0.06;1.58;0.00
236;66182832343205;-9.68;-0.26;-0.06;1.58;0.00
237;66182872382267;-9.73;-0.15;-0.13;1.58;0.00
238;66182892401799;-9.68;-0.12;-0.07;1.58;0.00
239;66182912421330;-9.71;-0.17;-0.11;1.58;0.00
240;66182932440861;-9.68;-0.17;-0.14;1.59;0.00
241;66182952429875;-9.70;-0.15;-0.12;1.58;0.00
242;66182972479924;-9.75;-0.16;-0.07;1.58;0.00
243;66182992529972;-9.63;-0.16;-0.02;1.57;0.00
244;66183012518986;-9.68;-0.20;-0.10;1.58;0.00
245;66183032569035;-9.68;-0.13;-0.11;1.58;0.00
246;66183052588566;-9.70;-0.14;-0.04;1.57;0.00
247;66183072608097;-9.67;-0.16;-0.06;1.58;0.00
248;66183092627629;-9.72;-0.16;-0.07;1.58;0.00
249;66183112616642;-9.66;-0.19;-0.00;1.57;0.00
250;66183132697209;-9.66;-0.17;-0.09;1.58;0.00
251;66183152686222;-9.67;-0.25;-0.05;1.58;0.00
252;66183192786320;-9.67;-0.14;-0.11;1.58;0.00
253;66183212805851;-9.69;-0.16;-0.14;1.59;0.00
254;66183232825383;-9.69;-0.15;-0.03;1.57;0.00
255;66183252814396;-9.68;-0.18;-0.05;1.58;0.00
256;66183272864445;-9.73;-0.16;-0.11;1.58;0.00
257;66183292883976;-9.67;-0.15;-0.14;1.59;0.00
258;66183312934025;-9.64;-0.13;-0.06;1.58;0.00
259;66183332953556;-9.66;-0.18;-0.11;1.58;0.00
260;66183352973088;-9.74;-0.17;-0.04;1.57;0.00
261;66183373023137;-9.71;-0.19;-0.13;1.58;0.00
262;66183393073185;-9.70;-0.16;-0.03;1.57;0.00
263;66183413092717;-9.68;-0.20;-0.09;1.58;0.00
264;66183433112248;-9.68;-0.16;-0.11;1.58;0.00
265;66183453162297;-9.68;-0.15;-0.10;1.58;0.00
266;66183473151310;-9.66;-0.17;-0.17;1.59;0.00
267;66183493231877;-9.69;-0.16;-0.07;1.58;0.00
268;66183513251408;-9.69;-0.20;-0.08;1.58;0.00
269;66183533270939;-9.70;-0.15;-0.16;1.59;0.00
270;66183573340519;-9.67;-0.24;-0.11;1.58;0.00
271;66183593390568;-9.73;-0.19;-0.11;1.58;0.00
272;66183613410099;-9.70;-0.22;-0.09;1.58;0.00
273;66183633429631;-9.71;-0.20;-0.04;1.57;0.00
274;66183653479679;-9.68;-0.20;-0.03;1.57;0.00
275;66183673499211;-9.76;-0.19;-0.16;1.59;0.00
276;66183693488224;-9.70;-0.10;-0.16;1.59;0.00
277;66183713538273;-9.68;-0.15;-0.10;1.58;0.00
278;66183733557804;-9.72;-0.17;-0.06;1.58;0.00
279;66183773596867;-9.67;-0.20;-0.07;1.58;0.00
280;66183793646916;-9.68;-0.16;-0.10;1.58;0.00
281;66183813666447;-9.66;-0.14;-0.11;1.58;0.00
282;66183853797062;-9.68;-0.14;-0.08;1.58;0.00
283;66183873816594;-9.72;-0.23;-0.07;1.58;0.00
284;66183913916691;-9.70;-0.17;-0.01;1.57;0.00
285;66183933936222;-9.67;-0.17;-0.10;1.58;0.00
286;66183974036320;-9.64;-0.18;-0.09;1.58;0.00
287;66183994086369;-9.63;-0.19;-0.11;1.58;0.00
288;66184014105900;-9.70;-0.28;-0.11;1.58;0.00
289;66184054175480;-9.70;-0.15;-0.06;1.58;0.00
290;66184074195012;-9.70;-0.09;-0.07;1.58;0.00
291;66184094214543;-9.71;-0.20;-0.09;1.58;0.00
292;66184114234074;-9.72;-0.14;-0.08;1.58;0.00
293;66184134253605;-9.60;-0.15;-0.08;1.58;0.00
294;66184154303654;-9.67;-0.17;-0.03;1.57;0.00
295;66184174323185;-9.71;-0.20;-0.03;1.57;0.00
296;66184194373234;-9.72;-0.21;-0.10;1.58;0.00
297;66184214453801;-9.73;-0.17;-0.10;1.58;0.00
298;66184234503849;-9.65;-0.15;-0.11;1.58;0.00
299;66184254523381;-9.68;-0.22;-0.03;1.57;0.00
300;66184274573429;-9.73;-0.23;-0.07;1.58;0.00
301;66184294592961;-9.68;-0.14;-0.16;1.59;0.00
302;66184314612492;-9.68;-0.19;-0.17;1.59;0.00
303;66184354651554;-9.66;-0.23;-0.07;1.58;0.00
304;66184374701603;-9.70;-0.19;-0.14;1.59;0.00
305;66184414801701;-9.72;-0.22;-0.13;1.58;0.00
306;66184454840763;-9.70;-0.17;-0.09;1.58;0.00
307;66184474860295;-9.74;-0.23;-0.03;1.57;0.00
308;66184494910344;-9.74;-0.15;-0.11;1.58;0.00
309;66184514929875;-9.68;-0.18;-0.03;1.57;0.00
310;66184534949406;-9.70;-0.20;-0.08;1.58;0.00
311;66184554968937;-9.67;-0.17;-0.09;1.58;0.00
312;66184575018986;-9.75;-0.16;-0.10;1.58;0.00
313;66184595038517;-9.71;-0.22;-0.02;1.57;0.00
314;66184615027531;-9.68;-0.17;-0.12;1.58;0.00
315;66184635077580;-9.68;-0.18;-0.12;1.58;0.00
316;66184655097111;-9.74;-0.17;-0.13;1.58;0.00
317;66184675116642;-9.65;-0.17;-0.09;1.58;0.00
318;66184695166691;-9.69;-0.19;-0.04;1.57;0.00
319;66184735236271;-9.67;-0.17;-0.08;1.58;0.00
320;66184755286320;-9.67;-0.20;-0.06;1.58;0.00
321;66184775275334;-9.69;-0.12;-0.10;1.58;0.00
322;66184795355900;-9.69;-0.13;-0.06;1.58;0.00
323;66184815375431;-9.74;-0.23;-0.14;1.59;0.00
324;66184835364445;-9.73;-0.22;-0.13;1.58;0.00
325;66184855414494;-9.72;-0.17;-0.10;1.58;0.00
326;66184875434025;-9.73;-0.16;-0.07;1.58;0.00
327;66184895423039;-9.67;-0.13;-0.11;1.58;0.00
328;66184915473088;-9.70;-0.27;-0.13;1.58;0.00
329;66184935492619;-9.66;-0.17;-0.14;1.59;0.00
330;66184955512150;-9.69;-0.13;-0.05;1.58;0.00
331;66184975562199;-9.69;-0.19;-0.10;1.58;0.00
332;66184995581730;-9.64;-0.20;-0.09;1.58;0.00
333;66185015631779;-9.70;-0.23;-0.12;1.58;0.00
334;66185035651310;-9.65;-0.10;-0.10;1.58;0.00
335;66185055701359;-9.70;-0.07;-0.07;1.58;0.00
336;66185075751408;-9.60;-0.15;-0.12;1.58;0.00
337;66185095801457;-9.73;-0.23;-0.09;1.58;0.00
338;66185115851506;-9.67;-0.25;-0.13;1.58;0.00
339;66185135871037;-9.67;-0.21;-0.10;1.58;0.00
340;66185155921086;-9.72;-0.21;-0.17;1.59;0.00
341;66185175971135;-9.64;-0.14;-0.11;1.58;0.00
342;66185196021183;-9.69;-0.20;-0.16;1.59;0.00
343;66185216101750;-9.70;-0.17;-0.20;1.59;0.00
344;66185236121281;-9.74;-0.21;-0.07;1.58;0.00
345;66185256171330;-9.69;-0.17;-0.04;1.57;0.00
346;66185276190861;-9.67;-0.20;-0.15;1.59;0.00
347;66185296240910;-9.74;-0.23;-0.14;1.59;0.00
348;66185316290959;-9.63;-0.20;-0.12;1.58;0.00
349;66185336279972;-9.70;-0.13;-0.04;1.57;0.00
350;66185356330021;-9.67;-0.12;0.03;1.57;0.00
351;66185376349553;-9.64;-0.13;-0.11;1.58;0.00
352;66185396399601;-9.75;-0.25;-0.11;1.58;0.00
353;66185416449650;-9.68;-0.26;-0.10;1.58;0.00
354;66185436499699;-9.63;-0.15;-0.06;1.58;0.00
355;66185456580265;-9.73;-0.08;0.01;1.57;0.00
356;66185476599797;-9.71;-0.23;-0.15;1.59;0.00
357;66185496680363;-9.70;-0.26;-0.19;1.59;0.00
358;66185516699894;-9.68;-0.21;-0.06;1.58;0.00
359;66185536719426;-9.63;-0.09;-0.07;1.58;0.00
360;66185556799992;-9.67;-0.09;-0.06;1.58;0.00
361;66185576819523;-9.64;-0.22;-0.11;1.58;0.00
362;66185596869572;-9.73;-0.28;-0.06;1.58;0.00
363;66185616889103;-9.71;-0.24;-0.11;1.58;0.00
364;66185636939152;-9.71;-0.11;-0.12;1.58;0.00
365;66185656989201;-9.62;-0.14;-0.06;1.58;0.00
366;66185677008732;-9.72;-0.20;-0.08;1.58;0.00
367;66185697089299;-9.67;-0.22;-0.10;1.58;0.00
368;66185717139347;-9.69;-0.11;-0.06;1.58;0.00
369;66185737158879;-9.68;-0.21;-0.00;1.57;0.00
370;66185757178410;-9.67;-0.13;-0.13;1.58;0.00
371;66185777258976;-9.64;-0.19;-0.14;1.59;0.00
372;66185797278508;-9.67;-0.19;-0.09;1.58;0.00
373;66185817298039;-9.67;-0.11;-0.12;1.58;0.00
374;66185837317570;-9.68;-0.22;-0.07;1.58;0.00
375;66185857337101;-9.74;-0.21;-0.10;1.58;0.00
376;66185877356633;-9.69;-0.23;-0.10;1.58;0.00
377;66185897406681;-9.70;-0.19;-0.01;1.57;0.00
378;66185917426213;-9.74;-0.14;-0.12;1.58;0.00
379;66185937476262;-9.65;-0.14;-0.07;1.58;0.00
380;66185957495793;-9.76;-0.17;-0.14;1.59;0.00
381;66185977545842;-9.69;-0.15;-0.06;1.58;0.00
382;66185997565373;-9.76;-0.20;-0.09;1.58;0.00
383;66186017615422;-9.69;-0.16;-0.09;1.58;0.00
384;66186037634953;-9.68;-0.23;-0.01;1.57;0.00
385;66186057654484;-9.70;-0.20;-0.08;1.58;0.00
386;66186077643498;-9.70;-0.15;-0.10;1.58;0.00
387;66186097693547;-9.71;-0.18;0.01;1.57;0.00
388;66186117713078;-9.69;-0.24;-0.16;1.59;0.00
389;66186137732609;-9.70;-0.19;-0.09;1.58;0.00
390;66186157813176;-9.69;-0.21;-0.08;1.58;0.00
391;66186177832707;-9.64;-0.16;-0.06;1.58;0.00
392;66186197913273;-9.70;-0.17;-0.09;1.58;0.00
393;66186217932804;-9.70;-0.19;-0.07;1.58;0.00
394;66186237952336;-9.73;-0.18;-0.11;1.58;0.00
395;66186258032902;-9.66;-0.19;-0.08;1.58;0.00
396;66186278052433;-9.69;-0.14;-0.06;1.58;0.00
397;66186298041447;-9.70;-0.18;-0.05;1.58;0.00
398;66186318091496;-9.68;-0.21;-0.11;1.58;0.00
399;66186338111027;-9.75;-0.19;-0.01;1.57;0.00
400;66186358130558;-9.68;-0.18;-0.09;1.58;0.00
401;66186378150090;-9.73;-0.19;-0.06;1.58;0.00
402;66186398200138;-9.67;-0.23;-0.04;1.57;0.00
403;66186418219670;-9.63;-0.13;-0.08;1.58;0.00
404;66186438208683;-9.63;-0.13;-0.10;1.58;0.00
405;66186458258732;-9.68;-0.14;-0.07;1.58;0.00
406;66186478308781;-9.73;-0.19;-0.15;1.59;0.00
407;66186498328312;-9.72;-0.24;-0.01;1.57;0.00
408;66186518347844;-9.73;-0.19;-0.09;1.58;0.00
409;66186538367375;-9.68;-0.16;-0.07;1.58;0.00
410;66186558386906;-9.72;-0.22;-0.09;1.58;0.00
411;66186578436955;-9.74;-0.19;-0.12;1.58;0.00
412;66186598487004;-9.71;-0.18;-0.07;1.58;0.00
413;66186618506535;-9.67;-0.22;-0.09;1.58;0.00
414;66186638526066;-9.74;-0.23;-0.13;1.58;0.00
415;66186658545597;-9.66;-0.21;-0.13;1.58;0.00
416;66186678565129;-9.71;-0.07;-0.08;1.58;0.00
417;66186698584660;-9.69;-0.15;-0.04;1.57;0.00
418;66186738623722;-9.67;-0.10;-0.10;1.58;0.00
419;66186758643254;-9.73;-0.21;-0.11;1.58;0.00
420;66186778632267;-9.66;-0.13;-0.08;1.58;0.00
421;66186798651799;-9.73;-0.15;-0.09;1.58;0.00
